Frequency (MHz),CISPR11_CE_CLASS_B_Group_1_AVG,CISPR11_CE_CLASS_A_Group_1_AVG
0.15,74,84
0.154499548,73.75451376,83.93257006
0.158999096,73.51607528,83.86707598
0.163498643,73.28429115,83.80340972
0.167998191,73.05880002,83.74147202
0.172497739,72.83926918,83.68117148
0.176997287,72.62539163,83.62242378
0.181496834,72.41688352,83.56515096
0.185996382,72.21348183,83.50928076
0.19049593,72.01494241,83.45474612
0.194995478,71.82103821,83.40148469
0.199495026,71.63155773,83.34943836
0.203994573,71.44630363,83.29855292
0.208494121,71.26509146,83.24877772
0.212993669,71.0877486,83.20006534
0.217493217,70.91411328,83.15237135
0.221992765,70.74403364,83.10565402
0.226492312,70.57736697,83.05987416
0.23099186,70.41397898,83.0149949
0.235491408,70.25374317,82.97098146
0.239990956,70.0965402,82.92780109
0.244490503,69.9422574,82.88542283
0.248990051,69.79078826,82.84381742
0.253489599,69.64203197,82.80295717
0.257989147,69.49589308,82.76281587
0.262488695,69.35228107,82.72336865
0.266988242,69.21111004,82.68459191
0.27148779,69.07229839,82.64646325
0.275987338,68.93576855,82.60896135
0.280486886,68.80144672,82.57206595
0.284986434,68.66926262,82.53575774
0.289485981,68.53914926,82.50001831
0.293985529,68.41104277,82.46483014
0.298485077,68.28488217,82.43017645
0.302984625,68.16060924,82.39604128
0.307484172,68.03816832,82.36240931
0.31198372,67.91750618,82.32926594
0.316483268,67.79857188,82.29659717
0.320982816,67.68131663,82.2643896
0.325482364,67.56569367,82.23263039
0.329981911,67.45165819,82.20130722
0.334481459,67.33916719,82.17040829
0.338981007,67.22817939,82.13992226
0.343480555,67.11865514,82.10983824
0.347980103,67.01055635,82.08014576
0.35247965,66.90384638,82.05083476
0.356979198,66.79849001,82.02189556
0.361478746,66.69445333,81.99331886
0.365978294,66.59170367,81.96509567
0.370477841,66.49020959,81.93721737
0.374977389,66.38994078,81.90967562
0.379476937,66.29086799,81.88246239
0.383976485,66.19296303,81.85556994
0.388476033,66.0961987,81.8289908
0.39297558,66.00054872,81.80271775
0.397475128,65.90598771,81.77674381
0.401974676,65.81249116,81.75106226
0.406474224,65.72003538,81.72566659
0.410973771,65.62859744,81.7005505
0.415473319,65.53815517,81.67570789
0.419972867,65.44868714,81.65113289
0.424472415,65.36017256,81.62681979
0.428971963,65.27259134,81.60276306
0.43347151,65.185924,81.57895735
0.437971058,65.10015166,81.55539747
0.442470606,65.01525602,81.53207841
0.446970154,64.93121934,81.50899529
0.451469702,64.84802442,81.48614339
0.455969249,64.76565456,81.46351811
0.460468797,64.68409356,81.441115
0.464968345,64.60332568,81.41892975
0.469467893,64.52333564,81.39695816
0.47396744,64.44410862,81.37519615
0.478466988,64.36563019,81.35363976
0.482966536,64.28788633,81.33228515
0.487466084,64.21086342,81.31112856
0.491965632,64.13454821,81.29016637
0.496465179,64.05892782,81.26939503
0.500964727,64,81.24881109
0.505464275,64,81.22841121
0.509963823,64,81.20819213
0.514463371,64,81.18815066
0.518962918,64,81.16828371
0.523462466,64,81.14858828
0.527962014,64,81.12906142
0.532461562,64,81.10970027
0.536961109,64,81.09050205
0.541460657,64,81.07146403
0.545960205,64,81.05258357
0.550459753,64,81.03385807
0.554959301,64,81.01528502
0.559458848,64,80.99686195
0.563958396,64,80.97858646
0.568457944,64,80.9604562
0.572957492,64,80.94246889
0.577457039,64,80.92462228
0.581956587,64,80.90691419
0.586456135,64,80.88934249
0.590955683,64,80.8719051
0.595455231,64,80.85459997
0.599954778,64,80.83742512
0.604454326,64,80.8203786
0.608953874,64,80.8034585
0.613453422,64,80.78666296
0.61795297,64,80.76999017
0.622452517,64,80.75343834
0.626952065,64,80.73700573
0.631451613,64,80.72069063
0.635951161,64,80.70449137
0.640450708,64,80.68840633
0.644950256,64,80.6724339
0.649449804,64,80.65657252
0.653949352,64,80.64082065
0.6584489,64,80.62517679
0.662948447,64,80.60963947
0.667447995,64,80.59420725
0.671947543,64,80.57887872
0.676447091,64,80.56365248
0.680946639,64,80.5485272
0.685446186,64,80.53350153
0.689945734,64,80.51857417
0.694445282,64,80.50374385
0.69894483,64,80.48900931
0.703444377,64,80.47436932
0.707943925,64,80.45982267
0.712443473,64,80.44536819
0.716943021,64,80.43100472
0.721442569,64,80.4167311
0.725942116,64,80.40254624
0.730441664,64,80.38844902
0.734941212,64,80.37443838
0.73944076,64,80.36051325
0.743940308,64,80.3466726
0.748439855,64,80.33291541
0.752939403,64,80.31924068
0.757438951,64,80.30564743
0.761938499,64,80.29213469
0.766438046,64,80.27870151
0.770937594,64,80.26534697
0.775437142,64,80.25207014
0.77993669,64,80.23887013
0.784436238,64,80.22574606
0.788935785,64,80.21269704
0.793435333,64,80.19972224
0.797934881,64,80.18682082
0.802434429,64,80.17399194
0.806933976,64,80.16123479
0.811433524,64,80.14854858
0.815933072,64,80.13593253
0.82043262,64,80.12338586
0.824932168,64,80.11090781
0.829431715,64,80.09849763
0.833931263,64,80.0861546
0.838430811,64,80.07387799
0.842930359,64,80.06166708
0.847429907,64,80.04952119
0.851929454,64,80.03743961
0.856429002,64,80.02542167
0.86092855,64,80.01346671
0.865428098,64,80.00157407
0.869927645,64,79.98974311
0.874427193,64,79.97797317
0.878926741,64,79.96626365
0.883426289,64,79.95461392
0.887925837,64,79.94302337
0.892425384,64,79.93149142
0.896924932,64,79.92001745
0.90142448,64,79.90860091
0.905924028,64,79.89724121
0.910423576,64,79.88593779
0.914923123,64,79.8746901
0.919422671,64,79.86349759
0.923922219,64,79.85235972
0.928421767,64,79.84127597
0.932921314,64,79.8302458
0.937420862,64,79.8192687
0.94192041,64,79.80834416
0.946419958,64,79.79747168
0.950919506,64,79.78665078
0.955419053,64,79.77588096
0.959918601,64,79.76516173
0.964418149,64,79.75449264
0.968917697,64,79.74387321
0.973417244,64,79.73330297
0.977916792,64,79.72278149
0.98241634,64,79.71230831
0.986915888,64,79.70188298
0.991415436,64,79.69150508
0.995914983,64,79.68117417
1.000414531,64,79.67088983
1.004914079,64,79.66065165
1.009413627,64,79.6504592
1.013913175,64,79.64031209
1.018412722,64,79.63020991
1.02291227,64,79.62015226
1.027411818,64,79.61013876
1.031911366,64,79.60016901
1.036410913,64,79.59024265
1.040910461,64,79.58035928
1.045410009,64,79.57051855
1.049909557,64,79.56072008
1.054409105,64,79.55096351
1.058908652,64,79.54124849
1.0634082,64,79.53157467
1.067907748,64,79.52194169
1.072407296,64,79.51234921
1.076906844,64,79.50279689
1.081406391,64,79.49328441
1.085905939,64,79.48381142
1.090405487,64,79.47437761
1.094905035,64,79.46498264
1.099404582,64,79.4556262
1.10390413,64,79.44630798
1.108403678,64,79.43702766
1.112903226,64,79.42778494
1.117402774,64,79.41857951
1.121902321,64,79.40941108
1.126401869,64,79.40027934
1.130901417,64,79.39118401
1.135400965,64,79.38212479
1.139900513,64,79.37310141
1.14440006,64,79.36411357
1.148899608,64,79.35516101
1.153399156,64,79.34624343
1.157898704,64,79.33736058
1.162398251,64,79.32851218
1.166897799,64,79.31969796
1.171397347,64,79.31091767
1.175896895,64,79.30217104
1.180396443,64,79.29345781
1.18489599,64,79.28477774
1.189395538,64,79.27613056
1.193895086,64,79.26751603
1.198394634,64,79.25893391
1.202894181,64,79.25038396
1.207393729,64,79.24186592
1.211893277,64,79.23337957
1.216392825,64,79.22492467
1.220892373,64,79.21650099
1.22539192,64,79.20810829
1.229891468,64,79.19974636
1.234391016,64,79.19141496
1.238890564,64,79.18311388
1.243390112,64,79.17484289
1.247889659,64,79.16660178
1.252389207,64,79.15839033
1.256888755,64,79.15020833
1.261388303,64,79.14205557
1.26588785,64,79.13393184
1.270387398,64,79.12583693
1.274886946,64,79.11777064
1.279386494,64,79.10973277
1.283886042,64,79.10172312
1.288385589,64,79.09374149
1.292885137,64,79.08578769
1.297384685,64,79.07786153
1.301884233,64,79.0699628
1.306383781,64,79.06209133
1.310883328,64,79.05424692
1.315382876,64,79.04642939
1.319882424,64,79.03863855
1.324381972,64,79.03087424
1.328881519,64,79.02313625
1.333381067,64,79.01542442
1.337880615,64,79.00773857
1.342380163,64,79.00007853
1.346879711,64,78.99244412
1.351379258,64,78.98483517
1.355878806,64,78.97725152
1.360378354,64,78.96969299
1.364877902,64,78.96215942
1.36937745,64,78.95465064
1.373876997,64,78.9471665
1.378376545,64,78.93970682
1.382876093,64,78.93227146
1.387375641,64,78.92486025
1.391875188,64,78.91747304
1.396374736,64,78.91010968
1.400874284,64,78.90277
1.405373832,64,78.89545385
1.40987338,64,78.8881611
1.414372927,64,78.88089158
1.418872475,64,78.87364515
1.423372023,64,78.86642167
1.427871571,64,78.85922098
1.432371118,64,78.85204295
1.436870666,64,78.84488743
1.441370214,64,78.83775429
1.445869762,64,78.83064338
1.45036931,64,78.82355456
1.454868857,64,78.8164877
1.459368405,64,78.80944266
1.463867953,64,78.80241931
1.468367501,64,78.79541752
1.472867049,64,78.78843715
1.477366596,64,78.78147807
1.481866144,64,78.77454015
1.486365692,64,78.76762327
1.49086524,64,78.7607273
1.495364787,64,78.7538521
1.499864335,64,78.74699757
1.504363883,64,78.74016356
1.508863431,64,78.73334997
1.513362979,64,78.72655666
1.517862526,64,78.71978353
1.522362074,64,78.71303044
1.526861622,64,78.70629728
1.53136117,64,78.69958393
1.535860718,64,78.69289028
1.540360265,64,78.68621621
1.544859813,64,78.67956161
1.549359361,64,78.67292637
1.553858909,64,78.66631036
1.558358456,64,78.65971349
1.562858004,64,78.65313563
1.567357552,64,78.64657669
1.5718571,64,78.64003655
1.576356648,64,78.6335151
1.580856195,64,78.62701224
1.585355743,64,78.62052787
1.589855291,64,78.61406187
1.594354839,64,78.60761415
1.598854386,64,78.6011846
1.603353934,64,78.59477311
1.607853482,64,78.5883796
1.61235303,64,78.58200395
1.616852578,64,78.57564607
1.621352125,64,78.56930585
1.625851673,64,78.56298321
1.630351221,64,78.55667804
1.634850769,64,78.55039025
1.639350317,64,78.54411974
1.643849864,64,78.53786642
1.648349412,64,78.53163019
1.65284896,64,78.52541097
1.657348508,64,78.51920865
1.661848055,64,78.51302314
1.666347603,64,78.50685436
1.670847151,64,78.50070222
1.675346699,64,78.49456662
1.679846247,64,78.48844747
1.684345794,64,78.4823447
1.688845342,64,78.47625821
1.69334489,64,78.47018791
1.697844438,64,78.46413372
1.702343986,64,78.45809555
1.706843533,64,78.45207332
1.711343081,64,78.44606695
1.715842629,64,78.44007635
1.720342177,64,78.43410144
1.724841724,64,78.42814213
1.729341272,64,78.42219835
1.73384082,64,78.41627001
1.738340368,64,78.41035704
1.742839916,64,78.40445936
1.747339463,64,78.39857688
1.751839011,64,78.39270953
1.756338559,64,78.38685723
1.760838107,64,78.38101991
1.765337655,64,78.37519748
1.769837202,64,78.36938987
1.77433675,64,78.36359701
1.778836298,64,78.35781882
1.783335846,64,78.35205523
1.787835393,64,78.34630617
1.792334941,64,78.34057155
1.796834489,64,78.33485131
1.801334037,64,78.32914538
1.805833585,64,78.32345368
1.810333132,64,78.31777615
1.81483268,64,78.31211271
1.819332228,64,78.3064633
1.823831776,64,78.30082784
1.828331323,64,78.29520626
1.832830871,64,78.28959851
1.837330419,64,78.2840045
1.841829967,64,78.27842418
1.846329515,64,78.27285747
1.850829062,64,78.26730432
1.85532861,64,78.26176464
1.859828158,64,78.25623839
1.864327706,64,78.25072549
1.868827254,64,78.24522588
1.873326801,64,78.23973949
1.877826349,64,78.23426626
1.882325897,64,78.22880614
1.886825445,64,78.22335905
1.891324992,64,78.21792494
1.89582454,64,78.21250373
1.900324088,64,78.20709538
1.904823636,64,78.20169982
1.909323184,64,78.19631699
1.913822731,64,78.19094683
1.918322279,64,78.18558929
1.922821827,64,78.18024429
1.927321375,64,78.17491179
1.931820923,64,78.16959172
1.93632047,64,78.16428403
1.940820018,64,78.15898865
1.945319566,64,78.15370554
1.949819114,64,78.14843464
1.954318661,64,78.14317588
1.958818209,64,78.13792922
1.963317757,64,78.1326946
1.967817305,64,78.12747196
1.972316853,64,78.12226125
1.9768164,64,78.11706241
1.981315948,64,78.1118754
1.985815496,64,78.10670014
1.990315044,64,78.10153661
1.994814591,64,78.09638473
1.999314139,64,78.09124446
2.003813687,64,78.08611574
2.008313235,64,78.08099853
2.012812783,64,78.07589277
2.01731233,64,78.07079841
2.021811878,64,78.06571541
2.026311426,64,78.0606437
2.030810974,64,78.05558324
2.035310522,64,78.05053398
2.039810069,64,78.04549587
2.044309617,64,78.04046886
2.048809165,64,78.03545291
2.053308713,64,78.03044796
2.05780826,64,78.02545396
2.062307808,64,78.02047087
2.066807356,64,78.01549864
2.071306904,64,78.01053723
2.075806452,64,78.00558658
2.080305999,64,78.00064665
2.084805547,64,77.9957174
2.089305095,64,77.99079877
2.093804643,64,77.98589072
2.098304191,64,77.98099321
2.102803738,64,77.97610619
2.107303286,64,77.97122961
2.111802834,64,77.96636344
2.116302382,64,77.96150762
2.120801929,64,77.95666212
2.125301477,64,77.95182689
2.129801025,64,77.94700188
2.134300573,64,77.94218706
2.138800121,64,77.93738237
2.143299668,64,77.93258778
2.147799216,64,77.92780325
2.152298764,64,77.92302873
2.156798312,64,77.91826419
2.16129786,64,77.91350957
2.165797407,64,77.90876484
2.170296955,64,77.90402995
2.174796503,64,77.89930488
2.179296051,64,77.89458957
2.183795598,64,77.88988398
2.188295146,64,77.88518808
2.192794694,64,77.88050183
2.197294242,64,77.87582518
2.20179379,64,77.8711581
2.206293337,64,77.86650054
2.210792885,64,77.86185248
2.215292433,64,77.85721387
2.219791981,64,77.85258466
2.224291528,64,77.84796484
2.228791076,64,77.84335435
2.233290624,64,77.83875315
2.237790172,64,77.83416122
2.24228972,64,77.82957851
2.246789267,64,77.82500499
2.251288815,64,77.82044062
2.255788363,64,77.81588536
2.260287911,64,77.81133918
2.264787459,64,77.80680204
2.269287006,64,77.80227391
2.273786554,64,77.79775474
2.278286102,64,77.79324451
2.28278565,64,77.78874318
2.287285197,64,77.78425071
2.291784745,64,77.77976707
2.296284293,64,77.77529222
2.300783841,64,77.77082614
2.305283389,64,77.76636878
2.309782936,64,77.76192011
2.314282484,64,77.7574801
2.318782032,64,77.75304871
2.32328158,64,77.74862592
2.327781128,64,77.74421168
2.332280675,64,77.73980596
2.336780223,64,77.73540874
2.341279771,64,77.73101998
2.345779319,64,77.72663964
2.350278866,64,77.7222677
2.354778414,64,77.71790412
2.359277962,64,77.71354887
2.36377751,64,77.70920191
2.368277058,64,77.70486323
2.372776605,64,77.70053278
2.377276153,64,77.69621053
2.381775701,64,77.69189646
2.386275249,64,77.68759053
2.390774797,64,77.68329271
2.395274344,64,77.67900297
2.399773892,64,77.67472128
2.40427344,64,77.67044761
2.408772988,64,77.66618194
2.413272535,64,77.66192422
2.417772083,64,77.65767444
2.422271631,64,77.65343255
2.426771179,64,77.64919854
2.431270727,64,77.64497237
2.435770274,64,77.64075402
2.440269822,64,77.63654345
2.44476937,64,77.63234064
2.449268918,64,77.62814556
2.453768465,64,77.62395818
2.458268013,64,77.61977846
2.462767561,64,77.61560639
2.467267109,64,77.61144194
2.471766657,64,77.60728508
2.476266204,64,77.60313577
2.480765752,64,77.598994
2.4852653,64,77.59485973
2.489764848,64,77.59073294
2.494264396,64,77.5866136
2.498763943,64,77.58250169
2.503263491,64,77.57839718
2.507763039,64,77.57430003
2.512262587,64,77.57021023
2.516762134,64,77.56612775
2.521261682,64,77.56205256
2.52576123,64,77.55798464
2.530260778,64,77.55392396
2.534760326,64,77.54987049
2.539259873,64,77.54582421
2.543759421,64,77.5417851
2.548258969,64,77.53775312
2.552758517,64,77.53372826
2.557258065,64,77.52971048
2.561757612,64,77.52569977
2.56625716,64,77.5216961
2.570756708,64,77.51769944
2.575256256,64,77.51370977
2.579755803,64,77.50972706
2.584255351,64,77.50575129
2.588754899,64,77.50178244
2.593254447,64,77.49782049
2.597753995,64,77.4938654
2.602253542,64,77.48991715
2.60675309,64,77.48597573
2.611252638,64,77.48204111
2.615752186,64,77.47811326
2.620251733,64,77.47419215
2.624751281,64,77.47027778
2.629250829,64,77.46637011
2.633750377,64,77.46246913
2.638249925,64,77.4585748
2.642749472,64,77.45468711
2.64724902,64,77.45080603
2.651748568,64,77.44693154
2.656248116,64,77.44306362
2.660747664,64,77.43920225
2.665247211,64,77.4353474
2.669746759,64,77.43149906
2.674246307,64,77.42765719
2.678745855,64,77.42382179
2.683245402,64,77.41999282
2.68774495,64,77.41617027
2.692244498,64,77.41235411
2.696744046,64,77.40854432
2.701243594,64,77.40474088
2.705743141,64,77.40094378
2.710242689,64,77.39715298
2.714742237,64,77.39336848
2.719241785,64,77.38959024
2.723741333,64,77.38581824
2.72824088,64,77.38205247
2.732740428,64,77.37829291
2.737239976,64,77.37453954
2.741739524,64,77.37079232
2.746239071,64,77.36705126
2.750738619,64,77.36331631
2.755238167,64,77.35958747
2.759737715,64,77.35586472
2.764237263,64,77.35214803
2.76873681,64,77.34843739
2.773236358,64,77.34473277
2.777735906,64,77.34103416
2.782235454,64,77.33734153
2.786735002,64,77.33365487
2.791234549,64,77.32997416
2.795734097,64,77.32629938
2.800233645,64,77.3226305
2.804733193,64,77.31896752
2.80923274,64,77.31531041
2.813732288,64,77.31165915
2.818231836,64,77.30801373
2.822731384,64,77.30437412
2.827230932,64,77.30074031
2.831730479,64,77.29711227
2.836230027,64,77.29349
2.840729575,64,77.28987347
2.845229123,64,77.28626266
2.84972867,64,77.28265756
2.854228218,64,77.27905815
2.858727766,64,77.27546441
2.863227314,64,77.27187632
2.867726862,64,77.26829386
2.872226409,64,77.26471702
2.876725957,64,77.26114578
2.881225505,64,77.25758012
2.885725053,64,77.25402002
2.890224601,64,77.25046547
2.894724148,64,77.24691645
2.899223696,64,77.24337294
2.903723244,64,77.23983493
2.908222792,64,77.2363024
2.912722339,64,77.23277533
2.917221887,64,77.2292537
2.921721435,64,77.2257375
2.926220983,64,77.22222671
2.930720531,64,77.21872131
2.935220078,64,77.21522129
2.939719626,64,77.21172664
2.944219174,64,77.20823732
2.948718722,64,77.20475334
2.95321827,64,77.20127467
2.957717817,64,77.1978013
2.962217365,64,77.1943332
2.966716913,64,77.19087037
2.971216461,64,77.18741279
2.975716008,64,77.18396044
2.980215556,64,77.1805133
2.984715104,64,77.17707137
2.989214652,64,77.17363462
2.9937142,64,77.17020304
2.998213747,64,77.16677661
3.002713295,64,77.16335533
3.007212843,64,77.15993916
3.011712391,64,77.1565281
3.016211938,64,77.15312214
3.020711486,64,77.14972125
3.025211034,64,77.14632543
3.029710582,64,77.14293465
3.03421013,64,77.1395489
3.038709677,64,77.13616817
3.043209225,64,77.13279245
3.047708773,64,77.12942171
3.052208321,64,77.12605594
3.056707869,64,77.12269513
3.061207416,64,77.11933927
3.065706964,64,77.11598833
3.070206512,64,77.11264231
3.07470606,64,77.10930119
3.079205607,64,77.10596495
3.083705155,64,77.10263359
3.088204703,64,77.09930709
3.092704251,64,77.09598542
3.097203799,64,77.09266859
3.101703346,64,77.08935657
3.106202894,64,77.08604935
3.110702442,64,77.08274692
3.11520199,64,77.07944926
3.119701538,64,77.07615637
3.124201085,64,77.07286822
3.128700633,64,77.0695848
3.133200181,64,77.0663061
3.137699729,64,77.0630321
3.142199276,64,77.0597628
3.146698824,64,77.05649817
3.151198372,64,77.05323821
3.15569792,64,77.0499829
3.160197468,64,77.04673223
3.164697015,64,77.04348619
3.169196563,64,77.04024475
3.173696111,64,77.03700792
3.178195659,64,77.03377567
3.182695207,64,77.03054799
3.187194754,64,77.02732488
3.191694302,64,77.02410631
3.19619385,64,77.02089227
3.200693398,64,77.01768276
3.205192945,64,77.01447775
3.209692493,64,77.01127725
3.214192041,64,77.00808122
3.218691589,64,77.00488967
3.223191137,64,77.00170257
3.227690684,64,76.99851992
3.232190232,64,76.99534171
3.23668978,64,76.99216791
3.241189328,64,76.98899852
3.245688875,64,76.98583354
3.250188423,64,76.98267293
3.254687971,64,76.9795167
3.259187519,64,76.97636483
